318
310
327
331
313
314
333
327
310
318
331
319
313
329
334
315
315
333
332
318
326
339
329
320
342
354
335
328
341
341
321
325
339
328
313
323
330
314
308
328
328
310
313
329
322
312
328
341
345
382
456
483
426
352
299
262
270
321
360
347
326
335
335
320
323
342
339
324
335
350
338
328
345
353
335
339
358
353
338
348
367
355
345
366
376
364
367
393
390
376
387
407
401
389
407
412
393
386
401
392
361
357
363
344
323
328
331
311
303
318
317
299
302
320
310
295
306
318
304
300
317
316
300
305
324
314
300
312
323
307
304
320
324
306
310
328
320
304
313
330
315
305
322
327
307
307
327
325
308
314
328
317
307
322
333
317
314
330
331
322
335
347
332
320
332
337
317
314
330
325
303
306
323
316
305
318
327
312
307
326
329
314
322
351
379
426
469
462
368
289
268
282
302
333
356
335
311
320
332
317
314
332
334
317
323
344
337
324
336
352
341
334
351
361
344
346
367
363
349
362
383
374
371
394
400
386
386
408
410
393
401
414
400
380
385
384
356
343
350
338
314
316
328
313
298
310
319
303
300
320
319
301
304
321
312
299
314
325
308
304
320
321
304
309
326
318
304
316
328
312
306
324
328
311
311
329
324
309
318
333
319
309
325
331
314
314
330
324
309
319
333
321
315
333
337
320
323
349
351
332
336
349
335
318
328
338
325
318
332
326
306
312
330
320
307
322
334
318
314
333
335
336
389
463
477
428
357
301
260
277
336
362
341
328
340
332
319
331
342
327
321
339
345
328
330
349
344
333
347
362
350
341
360
368
353
356
376
376
365
378
401
391
387
407
417
400
398
417
415
397
396
406
389
366
367
366
338
326
338
334
314
317
331
320
307
318
326
309
305
321
322
305
310
326
316
302
318
330
314
307
323
326
311
314
330
323
309
321
334
318
309
326
332
313
312
330
323
308
317
330
316
309
326
330
311
311
329
324
308
320
339
326
313
331
343
332
334
348
343
323
329
339
323
310
325
332
312
305
323
320
305
309
327
318
305
321
333
321
320
355
396
439
467
449
362
277
256
290
309
332
356
347
320
319
338
331
316
330
342
327
323
341
344
328
332
353
349
335
344
357
344
343
365
369
357
360
381
382
370
384
400
392
388
407
417
399
396
414
408
383
385
390
369
350
352
348
325
315
329
323
302
305
321
312
299
313
324
307
301
318
320
300
304
323
313
301
314
326
309
303
322
326
310
313
328
320
306
317
329
315
307
325
327
306
308
328
324
309
318
331
317
308
322
327
310
310
331
327
308
316
333
328
327
342
345
323
318
335
330
311
318
331
316
301
314
322
310
310
327
324
308
314
332
323
315
337
377
415
457
473
404
308
265
285
310
328
354
359
329
317
335
338
321
325
344
338
324
336
348
334
329
350
357
338
340
361
360
346
358
372
361
354
377
388
371
378
401
400
386
396
413
401
395
410
415
389
378
392
379
349
344
350
333
315
324
326
307
302
317
312
300
307
324
315
304
318
326
308
302
321
323
305
309
326
319
305
315
325
311
307
325
327
307
309
326
320
306
317
329
314
305
322
330
313
312
328
322
305
316
333
321
312
326
330
314
317
338
331
311
323
345
341
333
344
348
328
326
343
336
317
323
337
322
306
322
332
314
311
328
327
308
314
334
328
318
357
419
455
462
424
344
271
265
314
342
346
348
345
323
315
333
336
319
323
341
333
319
332
347
335
331
350
352
334
334
355
353
342
357
374
362
360
382
389
375
379
403
407
394
404
418
405
394
405
411
386
374
385
372
343
339
345
324
307
320
327
305
298
317
319
301
305
321
311
299
313
322
305
302
323
323
305
308
325
316
302
316
327
311
306
324
328
311
314
331
324
308
321
334
318
310
330
336
316
316
334
328
312
322
336
320
308
327
333
317
321
342
335
316
326
345
341
334
345
349
327
321
336
331
315
325
339
324
308
322
330
312
311
332
328
309
319
339
329
324
368
431
460
457
412
331
256
254
310
340
341
345
343
319
312
335
340
323
327
345
336
322
337
352
338
332
353
356
337
343
362
357
343
357
374
363
359
381
389
376
382
405
401
387
399
417
401
392
409
409
383
372
382
372
346
343
349
331
313
324
326
305
301
323
322
304
310
324
312
301
317
327
309
305
322
321
304
310
326
314
300
314
326
311
306
326
327
310
313
330
320
307
320
333
316
308
324
327
311
311
329
323
308
318
330
315
307
327
332
313
318
339
336
326
335
347
328
316
330
333
313
309
323
318
301
310
324
312
301
316
321
303
305
329
328
311
336
392
437
455
437
369
279
239
280
320
331
344
351
331
314
331
342
326
321
339
342
324
331
351
342
331
344
355
342
339
358
361
345
352
371
368
356
373
392
379
372
393
402
389
394
413
408
393
400
411
392
373
380
376
347
335
346
335
311
315
327
312
303
318
322
302
300
320
316
299
309
322
308
295
313
323
306
300
319
320
302
309
326
316
302
316
327
308
304
325
325
304
307
326
320
303
314
326
312
306
322
322
303
306
327
321
304
317
332
317
310
330
335
325
331
348
339
319
327
337
324
317
332
331
309
305
323
321
304
314
330
318
308
325
332
315
323
376
425
449
458
407
320
258
272
315
333
343
353
338
314
319
336
328
315
330
342
326
322
342
343
327
333
349
343
331
346
360
350
346
367
372
358
366
389
381
371
387
403
393
388
407
416
394
394
408
396
373
376
381
358
338
344
342
317
311
326
316
297
307
323
310
301
318
323
302
301
324
323
304
311
326
316
307
321
330
311
308
327
325
307
312
331
321
308
322
331
313
310
330
330
311
314
332
323
310
324
334
316
310
329
333
316
320
338
332
318
330
339
324
326
352
357
336
334
351
340
321
331
344
325
313
327
330
311
312
330
326
310
321
337
324
315
332
355
377
436
479
436
336
277
271
285
312
350
354
323
310
327
327
311
320
337
328
317
333
344
327
324
344
347
329
337
356
351
340
358
373
358
354
377
384
367
376
398
394
383
402
417
398
392
411
416
390
383
392
379
352
348
352
333
319
330
328
308
306
323
316
301
311
324
309
300
319
325
306
306
324
321
306
317
333
319
306
321
328
310
309
328
326
307
314
332
321
309
323
332
313
311
329
328
311
318
334
323
310
323
332
313
309
329
331
316
320
335
325
314
332
352
341
331
345
346
325
324
339
332
317
325
332
314
308
327
330
309
310
329
323
308
320
339
341
367
444
482
433
352
297
258
262
312
358
349
326
332
335
319
319
338
337
320
329
347
335
324
342
350
334
332
353
352
337
346
367
358
348
365
377
365
363
391
397
384
391
412
403
391
406
418
401
388
398
394
368
360
367
350
325
327
332
314
304
320
322
302
303
318
312
296
307
323
310
301
320
325
306
305
324
319
302
311
326
312
303
320
328
310
306
323
324
306
313
328
315
298
312
324
308
303
320
318
301
309
325
313
304
322
333
314
309
332
338
325
332
345
332
316
328
336
316
309
325
324
301
300
318
312
299
312
322
307
301
320
326
309
317
364
410
446
456
407
314
244
259
302
318
334
349
332
310
319
335
322
311
327
333
316
318
338
333
317
329
346
333
322
339
350
334
335
357
358
344
355
373
368
357
378
392
380
375
396
399
382
387
402
386
368
372
373
347
330
337
331
307
303
316
304
286
297
310
294
285
303
307
292
293
310
304
285
296
308
295
289
307
310
292
293
314
309
291
303
318
304
291
307
314
294
293
310
306
287
295
313
299
287
305
316
302
299
316
312
295
304
323
310
295
312
329
319
322
337
331
309
313
328
314
302
314
320
299
290
309
311
294
296
316
308
295
308
324
311
315
365
429
448
440
387
308
246
261
314
332
328
332
327
306
306
323
320
307
318
335
323
315
333
340
323
322
340
337
324
336
354
345
336
356
369
357
356
380
383
367
379
402
397
389
406
416
398
390
406
398
373
369
375
359
335
340
343
320
307
322
325
304
307
325
315
297
309
324
310
302
320
323
304
308
323
317
302
314
330
315
307
322
326
308
311
330
326
309
316
330
318
305
320
328
310
309
328
326
304
313
332
322
312
327
334
317
314
334
336
318
323
341
336
333
351
357
333
324
342
339
319
323
340
324
305
316
329
315
308
327
327
310
315
334
329
316
341
391
431
455
463
394
302
262
289
321
337
356
356
331
320
337
343
323
324
345
344
330
343
359
344
335
353
362
347
347
367
365
353
365
383
368
361
385
400
385
385
408
408
395
405
424
414
401
415
419
395
384
393
381
354
350
358
339
315
323
329
311
307
324
325
307
308
327
319
306
317
329
313
307
326
329
310
311
329
321
306
317
332
318
312
328
332
315
315
335
329
312
322
337
324
312
327
332
318
318
337
332
313
321
335
322
311
327
335
321
320
336
333
323
339
363
354
336
346
353
332
324
339
336
315
321
335
324
308
323
334
317
311
329
328
310
319
339
343
367
440
482
439
357
304
266
264
309
360
359
329
331
340
324
314
330
338
322
324
345
339
324
337
352
339
333
353
358
341
345
363
359
347
359
378
367
362
384
391
378
383
406
406
388
399
414
397
381
388
396
367
351
359
349
322
320
330
316
303
314
320
300
294
314
314
295
299
317
310
296
308
320
305
300
321
324
307
309
327
322
308
318
331
315
310
329
334
315
314
330
323
308
320
335
321
313
328
332
316
317
335
328
310
323
341
328
315
334
343
331
337
355
348
326
331
347
335
322
334
338
315
310
330
329
310
314
328
317
309
327
337
323
318
354
396
438
472
457
371
283
264
296
318
340
360
351
324
323
340
332
316
330
343
327
319
338
342
328
332
351
344
330
343
358
348
341
361
369
353
354
379
383
371
383
403
392
385
404
415
399
395
411
407
382
383
388
364
344
348
347
321
313
329
324
303
308
325
315
304
318
324
306
301
320
320
302
310
329
319
305
318
329
311
306
325
327
308
312
331
325
311
322
333
315
308
327
330
312
313
333
328
312
321
333
320
314
331
334
315
315
332
327
313
321
335
324
318
345
356
333
328
344
339
317
324
340
326
310
323
326
306
304
324
323
308
315
333
322
313
330
342
346
389
464
480
411
337
293
266
281
329
361
339
322
335
332
311
317
336
328
314
327
339
324
318
337
341
320
325
345
343
332
344
357
345
342
363
371
358
362
386
386
372
385
405
393
387
408
414
394
387
401
389
361
359
364
340
319
327
330
309
305
322
317
298
306
323
311
298
313
324
308
302
321
321
302
308
324
316
304
317
328
312
305
324
328
313
317
335
322
308
322
334
317
310
327
328
312
314
331
322
307
321
334
318
311
329
334
316
316
336
333
315
324
340
331
328
348
351
326
323
343
337
317
323
336
319
304
317
323
305
302
323
324
304
310
328
324
316
337
374
414
451
464
395
305
264
281
307
329
354
352
321
312
331
332
315
321
340
332
320
335
345
330
326
345
348
330
332
355
352
339
354
368
357
354
376
384
367
372
398
396
383
397
412
401
393
409
409
387
384
391
374
347
347
353
329
313
325
326
306
306
325
322
305
312
328
316
304
318
327
310
306
323
322
307
314
331
318
307
322
334
316
310
329
329
312
317
334
324
310
324
335
316
309
328
330
310
314
331
323
309
323
335
319
310
328
331
312
317
339
333
317
331
349
341
334
348
349
327
325
341
332
314
322
334
314
300
316
324
307
306
322
317
303
314
